wavelength,cool_giant,solar_dwarf,a_star,hot_star
1300,1.33296354612796e-27,1.2417283828565e-08,0.00710742827218386,0.64574008270598
1302.51271768103,1.07303745902699e-27,1.27353127458399e-08,0.0063579677864983,0.614660854509864
1305.03029209294,8.71797327834687e-28,1.31485560752379e-08,0.0061295272195953,0.611280227058293
1307.55273262311,8.54134765322258e-28,1.38537674282951e-08,0.00750327812114133,0.691023753338036
1310.08004867706,9.05129002254206e-28,1.46681402849259e-08,0.0094764832870128,0.80179651852161
1312.6122496785,9.46954907056368e-28,1.54678067354583e-08,0.0113655624708789,0.909054553241974
1315.14934506935,9.59118115396875e-28,1.62236030228998e-08,0.0130820535002486,0.989845631012827
1317.69134430977,8.90353861809965e-28,1.6859530862782e-08,0.0143172777346312,1
1320.23825687822,7.93884065584692e-28,1.74545346804067e-08,0.0153870668946871,0.98593577560461
1322.79009227147,7.01462470351289e-28,1.80524020254312e-08,0.0164916003441223,0.976000179260148
1325.34686000465,6.17196161449478e-28,1.87360549170083e-08,0.0173882086457063,0.958911880637372
1327.90856961129,5.50742433054957e-28,1.95959088986868e-08,0.0178689578184435,0.928326216522996
1330.47523064333,4.89628052694236e-28,2.05086707101201e-08,0.0182252144235154,0.893698732110761
1333.04685267118,4.27293258319188e-28,2.14118517930535e-08,0.018580880974555,0.858757114814757
1335.62344528376,3.75232117953814e-28,2.23419502765253e-08,0.0195413776414776,0.852071378380542
1338.20501808849,3.38326385578403e-28,2.33104931643407e-08,0.0214058989178508,0.887609018564373
1340.79158071141,3.05130987296513e-28,2.42883227740245e-08,0.0234943774987905,0.933554266904677
1343.38314279712,2.71195079171192e-28,2.52609064306696e-08,0.025576291286964,0.978409073026616
1345.9797140089,2.41604111287367e-28,2.63732695872943e-08,0.0264740231644896,0.997961771062896
1348.58130402866,2.16441546659149e-28,2.76305925921516e-08,0.0261354964464473,0.990934277208714
1351.18792255707,1.92053944440414e-28,2.8913559778746e-08,0.0255795648502029,0.979292801610331
1353.79957931354,1.67532024543514e-28,3.0192709738743e-08,0.0250587467687652,0.968696097944461
1356.41628403624,1.42795016836096e-28,3.14232198247574e-08,0.0247652107873692,0.945905171381596
1359.03804648218,1.17913066807925e-28,3.26202010057322e-08,0.0246322419345338,0.914895645962576
1361.66487642725,9.29712368816756e-29,3.38132920659034e-08,0.0245098551884447,0.883088002364592
1364.2967836662,6.7970922459714e-29,3.50050418726808e-08,0.0243824105839893,0.85120552449672
1366.93377801273,5.17084870980805e-29,3.64540863590406e-08,0.0245850005127464,0.849623656318612
1369.5758692995,3.90469079459912e-29,3.80089489347168e-08,0.0249222022591593,0.8605151642454
1372.22306737819,2.60199373798524e-29,3.95540096694676e-08,0.0252570649889892,0.870358137144961
1374.87538211951,1.4339019062682e-29,4.11186497880006e-08,0.0253766039293896,0.879767498903571
1377.53282341325,1.11190566978736e-29,4.28046247425407e-08,0.0241065302912117,0.885736280269821
1380.19540116832,1.03924692571555e-29,4.45256132141198e-08,0.022423452396391,0.890732387177289
1382.86312531277,9.22706551305448e-30,4.62398759802746e-08,0.0208091122630725,0.89595325346906
1385.53600579386,8.17118198421678e-30,4.80645977668732e-08,0.0198113344277575,0.892364971609161
1388.21405257806,7.21981133860933e-30,5.01062186937916e-08,0.0200465257251121,0.871527860926967
1390.89727565111,6.2885240827757e-30,5.21932527111653e-08,0.0205523468943343,0.846637982762289
1393.58568501805,5.35802837097501e-30,5.42763601606323e-08,0.021018484279943,0.822687509878124
1396.27929070326,4.82203320703806e-30,5.67345957739848e-08,0.0223627033304996,0.815676265751117
1398.97810275049,4.62653866141378e-30,5.9516058876417e-08,0.024458213094219,0.823338610788587
1401.68213122292,4.47228804804176e-30,6.23382358228122e-08,0.0266544277682848,0.833064072503204
1404.39138620315,4.31571329410395e-30,6.51541049905652e-08,0.0288220813539082,0.842006211843075
1407.1058777933,4.39603971298244e-30,6.80430724682837e-08,0.0306856044849873,0.837232897247673
1409.825616115,4.55885705645835e-30,7.09576501104429e-08,0.0324398704555098,0.82753788239029
1412.55061130945,4.71369163756086e-30,7.38699971898929e-08,0.0342011534757815,0.818136645495268
1415.28087353744,5.1411534661982e-30,7.68199528201221e-08,0.0359771489810254,0.812522364756086
1418.0164129794,6.45189887317687e-30,7.98922103494939e-08,0.0377974232714936,0.819274126397562
1420.75723983547,7.95940774430685e-30,8.29844554702025e-08,0.0396500692688101,0.828749513363433
1423.50336432546,9.41003050825534e-30,8.60886601003397e-08,0.041440233137344,0.83751495830149
1426.25479668895,1.02776474309242e-29,8.96824902538291e-08,0.0415096899167836,0.840559216400525
1429.01154718533,1.05752006652642e-29,9.37552450612024e-08,0.0399227378303582,0.838037002168227
1431.77362609379,1.07943604394144e-29,9.78585279621272e-08,0.0380385292422016,0.83447352252349
1434.54104371342,1.10432245354502e-29,1.02052151082588e-07,0.0364727519690421,0.832110384567754
1437.31381036319,1.15325537925123e-29,1.08100231966158e-07,0.039629544574957,0.848121069704145
1440.09193638202,1.20905851955157e-29,1.14635557162345e-07,0.0441214068606706,0.869159163854038
1442.87543212884,1.25743981250906e-29,1.19529946304189e-07,0.0473727600418292,0.881246138551674
1445.66430798255,1.29623536442336e-29,1.22073312631142e-07,0.048882436249573,0.879762538460538
1448.45857434217,1.34766430591385e-29,1.26229157114342e-07,0.0504166544651502,0.873809921296585
1451.25824162677,1.40974869492606e-29,1.32113848064549e-07,0.052286846620097,0.86637053962094
1454.0633202756,1.47812279890721e-29,1.38195158986914e-07,0.0540552809539095,0.858262096810059
1456.87382074805,1.61851435348916e-29,1.44747784408036e-07,0.0541395385497634,0.844602405096462
1459.68975352376,1.79807734139794e-29,1.51584502848743e-07,0.0533136325009506,0.827890415945122
1462.5111291026,1.97955921156802e-29,1.58443274216628e-07,0.0524322401735581,0.810962989621385
1465.33795800475,2.1722014445901e-29,1.6494277434028e-07,0.0519007781533646,0.796795451171109
1468.17025077072,2.40721658014235e-29,1.70181204696877e-07,0.0525681716629568,0.792314802714628
1471.00801796139,2.64807343306139e-29,1.75194926513865e-07,0.053414061817198,0.789323227941594
1473.85127015806,2.88993032434369e-29,1.80370006945671e-07,0.0542423598814589,0.786002296856174
1476.70001796247,3.1602654602852e-29,1.86982522246598e-07,0.055329543269065,0.782530841982179
1479.55427199686,3.45081659002667e-29,1.94618997040691e-07,0.0565965341399186,0.77892271835015
1482.414042904,3.7373534898877e-29,2.02286456732028e-07,0.0578667261422287,0.775237280226716
1485.27934134724,4.12906945520569e-29,2.10816731124718e-07,0.059331303848967,0.772835142925758
1488.15017801052,4.9653765272418e-29,2.23060411326728e-07,0.0616254833920495,0.775780192164142
1491.02656359846,5.8582777735957e-29,2.35803348806536e-07,0.0640496726846619,0.77970911962057
1493.90850883633,6.74766317720124e-29,2.48406037833637e-07,0.0663655534964044,0.782330884813039
1496.79602447017,7.7319465501081e-29,2.60713378975718e-07,0.0678587011247292,0.773679016915453
1499.68912126677,8.78012058286934e-29,2.72816577463563e-07,0.0687903646423682,0.757300489270733
1502.58781001373,9.83350166972766e-29,2.8494650382701e-07,0.0697040156123633,0.740476034902361
1505.49210151952,1.0839210589159e-28,2.94961701234346e-07,0.0696415688161574,0.721012453790907
1508.40200661347,1.15963934508182e-28,2.97629026588729e-07,0.0661988402661125,0.691206135144363
1511.31753614586,1.26470090297099e-28,3.01609322384973e-07,0.0632100222634806,0.665054294614738
1514.23870098796,1.61198121832948e-28,3.20521520076718e-07,0.0663328496633342,0.675719803046465
1517.16551203201,2.05332593368036e-28,3.48924543414163e-07,0.0721791968797886,0.698351311233248
1520.09798019134,2.43872480639816e-28,3.90833035943509e-07,0.0785307928777214,0.701061979538344
1523.03611640036,2.81690577676532e-28,4.3859479716058e-07,0.0850834524370942,0.701164865968829
1525.97993161461,3.19246355388683e-28,5.67250427452832e-07,0.094914466332803,0.694363841996548
1528.92943681081,3.56002657307073e-28,8.42731045171885e-07,0.110719250849876,0.674075116844091
1531.8846429869,3.92579694902622e-28,1.13628398325821e-06,0.126957184492244,0.651947692299271
1534.84556116208,4.29757261451489e-28,1.39513819064549e-06,0.143248328995247,0.633899205850175
1537.81220237683,4.70520832558973e-28,1.47116447620825e-06,0.160497438586046,0.637823258388451
1540.78457769299,5.10832880837277e-28,1.50677432616928e-06,0.178459799837843,0.646522164969967
1543.76269819378,5.56440701426331e-28,1.55818935061596e-06,0.194046624755258,0.653677347469798
1546.74657498383,6.42713647893866e-28,1.71495458076768e-06,0.191588042732406,0.650862680910778
1549.73621918924,7.64218757843753e-28,1.96372699460084e-06,0.173435648749639,0.639361808214904
1552.73164195761,8.87224504716122e-28,2.21729604158574e-06,0.154538062456463,0.627434679517749
1555.7328544581,1.02248994669854e-27,2.40115987755324e-06,0.139403423856714,0.619130598544161
1558.73986788145,1.20383082410778e-27,2.41109463863385e-06,0.13344797670967,0.619839257698779
1561.75269344003,1.291260893708e-27,2.3981683770851e-06,0.127095829523539,0.620789524639034
1564.77134236788,1.8709287285188e-27,2.45494219480162e-06,0.125267425207153,0.622948856806036
1567.79582592075,4.86096689154635e-27,2.83748787872437e-06,0.146319902959219,0.631760228604583
1570.82615537616,8.47655306640308e-27,3.30770317172972e-06,0.173372120776584,0.64239208299608
1573.86234203341,1.20633164627798e-26,3.7597517512304e-06,0.199823105334382,0.652463279037578
1576.90439721367,1.55420376565288e-26,4.10613195639486e-06,0.22314170149705,0.659166419784847
1579.95233225995,1.89314907011895e-26,4.36629374977197e-06,0.243952419625737,0.663116856748563
1583.00615853722,2.23259448679349e-26,4.62374908818481e-06,0.26458627700808,0.666984505628563
1586.0658874324,2.58905667050074e-26,4.86738912787177e-06,0.28240995082949,0.670508900403199
1589.13153035442,2.97932426691521e-26,5.08298336470851e-06,0.294794782175512,0.673278452588085
1592.20309873427,3.35801136196137e-26,5.29701257265763e-06,0.307402321819511,0.676345887929566
1595.28060402502,3.80458085546747e-26,5.51550391682512e-06,0.318009896287298,0.677680247105325
1598.3640577019,4.50723767273764e-26,5.74946205085389e-06,0.32079229430985,0.672456815067158
1601.45347126229,5.24380142925357e-26,5.98492301071434e-06,0.323052024590569,0.666520404867939
1604.54885622581,5.90923978734128e-26,6.21911565026403e-06,0.324738377815257,0.661574843164475
1607.65022413436,6.2824596991763e-26,6.44872205849874e-06,0.323611212083764,0.660550939302651
1610.75758655212,6.5342902199029e-26,6.67592307455996e-06,0.321587220755339,0.661334817589115
1613.87095506565,6.79963755781241e-26,6.90560599255347e-06,0.318373595699669,0.661056305817813
1616.99034128387,7.13901696134664e-26,7.1493847450552e-06,0.308440477723574,0.654865288051216
1620.11575683817,7.52938107064344e-26,7.4039320906025e-06,0.292488186764948,0.643424924207851
1623.24721338242,7.96500846834057e-26,7.6636167865405e-06,0.277405161993363,0.63262924690896
1626.38472259299,8.98265701185196e-26,7.98970511079385e-06,0.273514536500474,0.630126917211232
1629.52829616885,1.08813904593963e-25,8.41744318095394e-06,0.286513928554025,0.640057253775581
1632.67794583156,1.27482061358022e-25,8.82717284438676e-06,0.298591253417791,0.65024155647071
1635.83368332534,1.49438825649821e-25,9.4347604762988e-06,0.320412596306711,0.657196311414561
1638.99552041712,1.79441848051525e-25,1.05177841037018e-05,0.365874796724619,0.656361075437733
1642.16346889656,2.10659980175949e-25,1.16841959038466e-05,0.415183244918978,0.656251902928577
1645.33754057613,2.3429816599987e-25,1.23349854242057e-05,0.440628183818494,0.652234072359522
1648.5177472911,2.35977523576847e-25,1.14781184235545e-05,0.396241450505731,0.636658409524598
1651.70410089964,2.32518936390889e-25,1.03709220665798e-05,0.340924372569755,0.61867115888949
1654.89661328284,2.45722901425351e-25,9.80896846260237e-06,0.306976832796862,0.607750529741106
1658.09529634474,3.11273849467488e-25,1.09451327827317e-05,0.339293025100602,0.619015653105614
1661.3001620124,3.95075308354038e-25,1.26675801881111e-05,0.395099134165313,0.637764973182819
1664.51122223592,4.62866057178183e-25,1.38927776083094e-05,0.42811053024983,0.650936232307468
1667.72848898853,4.68158506113789e-25,1.32898583157463e-05,0.376820235424634,0.644307797542768
1670.95197426655,4.71617260421621e-25,1.22673831430023e-05,0.305502192372256,0.630720887501941
1674.18169008954,6.16112704594416e-25,1.33233471970071e-05,0.339268631489591,0.630502499721189
1677.41764850027,8.42359958140185e-25,1.67935238178252e-05,0.436473355449454,0.640501298951875
1680.65986156477,9.80129950155112e-25,2.16557177464643e-05,0.47661079521589,0.648608629939318
1683.90834137242,1.1107951233578e-24,2.69766169146362e-05,0.503764360996498,0.654585407881836
1687.16310003596,1.25201865547809e-24,3.37951915014611e-05,0.495707515911814,0.650736488950528
1690.42414969153,1.40340647313667e-24,4.19525873426609e-05,0.455300417919371,0.638121526407004
1693.69150249873,1.54733263335729e-24,5.0043403520897e-05,0.419487035431734,0.625949839315856
1696.96517064068,1.64474850860127e-24,5.80401437973184e-05,0.405482841426604,0.614317514879619
1700.24516632404,1.6907776162778e-24,6.60305542907667e-05,0.414320084201205,0.603277920623333
1703.53150177904,1.75060390479335e-24,7.35979591225514e-05,0.422571314990318,0.592111835069716
1706.82418925959,1.91645966364513e-24,7.73027731347692e-05,0.435206329246023,0.580055178941996
1710.12324104325,2.19771200703163e-24,7.64085519549606e-05,0.453102957771974,0.566864291857416
1713.42866943133,2.5112446757504e-24,7.60020873299344e-05,0.47007771697057,0.554101285746834
1716.74048674891,3.31855750565829e-24,7.88148398524461e-05,0.478669808194422,0.546135926059978
1720.05870534491,4.74975447470453e-24,8.56681088157561e-05,0.476606272646062,0.54408063490934
1723.38333759208,6.11737453928633e-24,9.2273516017972e-05,0.475791644755758,0.542008580882247
1726.71439588712,7.00897000538088e-24,9.86092008171118e-05,0.485873640077386,0.54540810933227
1730.05189265069,7.28852398943331e-24,0.000104535868177809,0.510072102200128,0.555851766225609
1733.39584032742,7.61901297720293e-24,0.000110663904247464,0.532615303765752,0.565438292772874
1736.74625138605,8.18141578648143e-24,0.000120000264465498,0.541042999576348,0.567398608544414
1740.10313831937,9.04300365103493e-24,0.000133308842168901,0.531526495079614,0.559697649023682
1743.46651364434,9.85695081825489e-24,0.000146471914483833,0.524364157774823,0.553139900572196
1746.83638990213,1.0266517598562e-23,0.000161414392298413,0.533996383527037,0.553814392537304
1750.2127796581,1.01934321279448e-23,0.000178641682906581,0.564328015658041,0.563326298626881
1753.59569550196,1.01732940758047e-23,0.000194675301847365,0.589422851120732,0.571018406322547
1756.9851500477,1.03401068413567e-23,0.000200059379415402,0.57592795501038,0.566512143164544
1760.38115593372,1.07100392653806e-23,0.00019378341950246,0.519421893466571,0.5485224978328
1763.78372582284,1.10758730588648e-23,0.000189192734448664,0.472716579933199,0.53292408537983
1767.19287240237,1.15274668459033e-23,0.000190201877018397,0.471823004933332,0.526885900573564
1770.60860838412,1.20369527197344e-23,0.000196327474728258,0.515809773476914,0.530083462019769
1774.03094650448,1.26765283995799e-23,0.00020397407151463,0.551882186151462,0.532600673046595
1777.45989952446,1.39864922197579e-23,0.000221285331272082,0.566943022064827,0.535534261951076
1780.89548022973,1.58756753206809e-23,0.000246863048732787,0.563767047402976,0.538625943596
1784.33770143068,1.75210155744142e-23,0.000269279338173052,0.566768450869458,0.542467379100319
1787.78657596246,1.84659734560239e-23,0.000282782138698345,0.586334218588689,0.549066136731704
1791.24211668501,1.88857215683005e-23,0.00029018521798505,0.618773368259633,0.557794805971416
1794.70433648316,1.96999158084992e-23,0.000298593837040487,0.638984902418207,0.564443467370206
1798.17324826663,2.1471692182985e-23,0.00030816022913566,0.628749026658175,0.565797796605415
1801.64886497007,2.3745071626741e-23,0.000318920959714974,0.6016643170032,0.565051677553414
1805.13119955315,2.59411974466405e-23,0.000325592033439293,0.583618811131718,0.559957045984333
1808.62026500061,2.80848090279607e-23,0.000323867127769142,0.581398681603057,0.545191132712035
1812.11607432225,3.01345328773468e-23,0.000317793521861564,0.58582588174,0.525864177596176
1815.61864055304,3.27303521846224e-23,0.000322016422638644,0.582859132464827,0.51515804484651
1819.12797675313,3.62495505971149e-23,0.000343020015987169,0.568478038796639,0.518283893680943
1822.64409600793,3.98907474429617e-23,0.000367763416299065,0.551361016510885,0.524990498185846
1826.16701142813,4.39709255885497e-23,0.00038863999598359,0.538285927944835,0.524662467509098
1829.69673614977,4.868124464885e-23,0.000404505139191402,0.530307040657564,0.515169419655533
1833.23328333426,5.33314404784887e-23,0.000422540283280257,0.523041306100076,0.505578873438914
1836.77666616848,5.89643236240498e-23,0.000411425104759421,0.508544265047918,0.494072826487808
1840.32689786477,6.56532244899693e-23,0.000367746258208112,0.485826209626313,0.480384441177014
1843.88399166103,7.23342917520078e-23,0.000332848651898587,0.466375343446779,0.467358617110586
1847.44796082073,7.99802827454168e-23,0.0003448159227135,0.468080437070193,0.458179402803711
1851.01881863299,8.82438920109602e-23,0.000395669518549987,0.487345340831603,0.451925909112368
1854.5965784126,9.76332983957158e-23,0.000440643263533805,0.503419458514976,0.44716277197767
1858.1812535001,1.10804970670978e-22,0.000480895070039534,0.515676753391843,0.448215283911812
1861.77285726181,1.26080292879799e-22,0.000519024926280879,0.525957289528928,0.452060910135246
1865.37140308989,1.41379890276179e-22,0.00055067077578024,0.533943752120661,0.459389579853896
1868.97690440237,1.5721720404077e-22,0.000569976335178783,0.537284574452749,0.473503708016692
1872.58937464324,1.72954439344418e-22,0.00058522744962824,0.539199373985884,0.491610265859221
1876.20882728245,1.90929834961757e-22,0.000601592725310846,0.54071799640207,0.494025231892159
1879.835275816,2.1168066231572e-22,0.000618819329197276,0.541539973468344,0.477797099748694
1883.46873376597,2.32280447861153e-22,0.000634895027261348,0.542168497610218,0.45989417664514
1887.10921468058,2.60514467576693e-22,0.000676211192745513,0.545680216549689,0.446700510001964
1890.75673213424,2.95257266608727e-22,0.00074064830379269,0.55205557017225,0.437037011062814
1894.41129972759,3.30376147080173e-22,0.000792240732598986,0.555038544166682,0.429912446469978
1898.07293108757,3.70590985818167e-22,0.000801247973959881,0.545141748079519,0.435452063989031
1901.74163986743,4.13282903370745e-22,0.000782324550327122,0.526285175841472,0.449360932440134
1905.41743974685,4.60295444930037e-22,0.000786108645866328,0.519185758789417,0.455169953330784
1909.10034443192,5.15731313996321e-22,0.000823750949578914,0.530897857873494,0.448505042204818
1912.79036765524,5.72877005085477e-22,0.000874375200260002,0.549791684780501,0.437298289570822
1916.48752317593,6.39918518738636e-22,0.000908415419551328,0.559482703940481,0.429974452007885
1920.19182477974,7.17400194163334e-22,0.000927541555479052,0.56080340739456,0.425966798899534
1923.90328627905,7.95951175770245e-22,0.000942755487429787,0.560809569395951,0.422431585227595
1927.62192151291,8.86052389163667e-22,0.000896312317167205,0.543090480001818,0.425010416930368
1931.34774434716,9.82533159496943e-22,0.000801387229185291,0.511655340832734,0.431881913403664
1935.08076867441,1.09329222379455e-21,0.000774983116756982,0.4974604074451,0.437141821803097
1938.82100841416,1.2396020735221e-21,0.000892961672426817,0.519114697910991,0.43992078172477
1942.56847751276,1.40011902596953e-21,0.00107856086168974,0.557573048830526,0.442293412942172
1946.32318994357,1.56553489437857e-21,0.00118504007276521,0.576345501269768,0.437905516217912
